#Redshift = 2.45e+00 Box = 2.50e+04 [kpc/h] VelScale = 2.53e+03 [km/s]
#x = 5.16e-01 y = 3.83e-01
#velocity [km/s], tau_HILya, tau_HeI584, tau_HeIILya, nHI [cm^-3], nHeII [cm^-3], Delta_b, T [K], xpos [Mpc/h], vpec [km/sec]
0.000e+00 1.234e-01 3.718e-03 3.452e+00 1.242e-12 1.242e-10 9.834e-01 1.179e+04 3.575e+03 -1.880e+01
8.441e-01 1.213e-01 3.653e-03 3.391e+00 1.167e-12 1.167e-10 9.361e-01 1.174e+04 3.583e+03 -1.819e+01
1.688e+00 1.191e-01 3.567e-03 3.312e+00 1.087e-12 1.087e-10 8.857e-01 1.169e+04 3.592e+03 -1.753e+01
2.532e+00 1.170e-01 3.461e-03 3.214e+00 1.011e-12 1.011e-10 8.394e-01 1.164e+04 3.600e+03 -1.681e+01
3.377e+00 1.149e-01 3.338e-03 3.099e+00 9.516e-13 9.516e-11 8.028e-01 1.161e+04 3.608e+03 -1.607e+01
4.221e+00 1.127e-01 3.201e-03 2.972e+00 9.063e-13 9.063e-11 7.732e-01 1.160e+04 3.617e+03 -1.535e+01
5.065e+00 1.106e-01 3.054e-03 2.835e+00 8.699e-13 8.699e-11 7.453e-01 1.162e+04 3.625e+03 -1.470e+01
5.909e+00 1.086e-01 2.903e-03 2.695e+00 8.363e-13 8.363e-11 7.148e-01 1.165e+04 3.633e+03 -1.414e+01
6.753e+00 1.065e-01 2.754e-03 2.556e+00 7.996e-13 7.996e-11 6.791e-01 1.170e+04 3.642e+03 -1.369e+01
7.597e+00 1.046e-01 2.613e-03 2.426e+00 7.564e-13 7.564e-11 6.379e-01 1.175e+04 3.650e+03 -1.334e+01
8.441e+00 1.027e-01 2.486e-03 2.308e+00 7.052e-13 7.052e-11 5.926e-01 1.179e+04 3.658e+03 -1.310e+01
9.285e+00 1.008e-01 2.379e-03 2.209e+00 6.500e-13 6.500e-11 5.489e-01 1.184e+04 3.667e+03 -1.296e+01
1.013e+01 9.905e-02 2.296e-03 2.131e+00 6.021e-13 6.021e-11 5.166e-01 1.193e+04 3.675e+03 -1.292e+01
1.097e+01 9.738e-02 2.238e-03 2.078e+00 5.752e-13 5.752e-11 5.066e-01 1.207e+04 3.683e+03 -1.298e+01
1.182e+01 9.578e-02 2.207e-03 2.049e+00 5.772e-13 5.772e-11 5.241e-01 1.227e+04 3.692e+03 -1.310e+01
1.266e+01 9.427e-02 2.200e-03 2.043e+00 6.072e-13 6.072e-11 5.654e-01 1.248e+04 3.700e+03 -1.321e+01
1.351e+01 9.285e-02 2.214e-03 2.056e+00 6.590e-13 6.590e-11 6.227e-01 1.267e+04 3.708e+03 -1.324e+01
1.435e+01 9.151e-02 2.243e-03 2.083e+00 7.198e-13 7.198e-11 6.833e-01 1.281e+04 3.717e+03 -1.320e+01
1.519e+01 9.025e-02 2.281e-03 2.118e+00 7.710e-13 7.710e-11 7.308e-01 1.290e+04 3.725e+03 -1.309e+01
1.604e+01 8.907e-02 2.322e-03 2.155e+00 7.932e-13 7.932e-11 7.493e-01 1.294e+04 3.733e+03 -1.296e+01
1.688e+01 8.797e-02 2.357e-03 2.189e+00 7.727e-13 7.727e-11 7.285e-01 1.293e+04 3.742e+03 -1.281e+01
1.773e+01 8.693e-02 2.383e-03 2.212e+00 7.082e-13 7.082e-11 6.692e-01 1.288e+04 3.750e+03 -1.266e+01
1.857e+01 8.596e-02 2.394e-03 2.222e+00 6.125e-13 6.125e-11 5.834e-01 1.278e+04 3.758e+03 -1.247e+01
1.941e+01 8.506e-02 2.388e-03 2.217e+00 5.069e-13 5.069e-11 4.897e-01 1.263e+04 3.767e+03 -1.219e+01
2.026e+01 8.422e-02 2.365e-03 2.196e+00 4.159e-13 4.159e-11 4.095e-01 1.243e+04 3.775e+03 -1.172e+01
2.110e+01 8.344e-02 2.327e-03 2.160e+00 3.607e-13 3.607e-11 3.612e-01 1.221e+04 3.783e+03 -1.098e+01
2.195e+01 8.273e-02 2.276e-03 2.113e+00 3.520e-13 3.520e-11 3.546e-01 1.206e+04 3.792e+03 -1.006e+01
2.279e+01 8.209e-02 2.217e-03 2.059e+00 3.896e-13 3.896e-11 3.902e-01 1.200e+04 3.800e+03 -9.259e+00
2.364e+01 8.152e-02 2.155e-03 2.001e+00 4.593e-13 4.593e-11 4.569e-01 1.202e+04 3.808e+03 -8.754e+00
2.448e+01 8.104e-02 2.094e-03 1.944e+00 5.377e-13 5.377e-11 5.345e-01 1.204e+04 3.817e+03 -8.477e+00
2.532e+01 8.066e-02 2.039e-03 1.893e+00 6.031e-13 6.031e-11 6.032e-01 1.203e+04 3.825e+03 -8.313e+00
2.617e+01 8.038e-02 1.992e-03 1.850e+00 6.408e-13 6.408e-11 6.486e-01 1.200e+04 3.833e+03 -8.193e+00
2.701e+01 8.023e-02 1.956e-03 1.816e+00 6.448e-13 6.448e-11 6.634e-01 1.194e+04 3.842e+03 -8.071e+00
2.786e+01 8.021e-02 1.931e-03 1.793e+00 6.185e-13 6.185e-11 6.488e-01 1.185e+04 3.850e+03 -7.913e+00
2.870e+01 8.036e-02 1.917e-03 1.780e+00 5.714e-13 5.714e-11 6.118e-01 1.175e+04 3.858e+03 -7.678e+00
2.954e+01 8.069e-02 1.912e-03 1.775e+00 5.178e-13 5.178e-11 5.649e-01 1.165e+04 3.867e+03 -7.306e+00
3.039e+01 8.123e-02 1.913e-03 1.776e+00 4.718e-13 4.718e-11 5.213e-01 1.157e+04 3.875e+03 -6.739e+00
3.123e+01 8.200e-02 1.920e-03 1.782e+00 4.436e-13 4.436e-11 4.914e-01 1.153e+04 3.883e+03 -5.987e+00
3.208e+01 8.304e-02 1.929e-03 1.791e+00 4.354e-13 4.354e-11 4.787e-01 1.155e+04 3.892e+03 -5.164e+00
3.292e+01 8.438e-02 1.939e-03 1.800e+00 4.438e-13 4.438e-11 4.816e-01 1.159e+04 3.900e+03 -4.424e+00
3.377e+01 8.605e-02 1.949e-03 1.810e+00 4.620e-13 4.620e-11 4.960e-01 1.161e+04 3.908e+03 -3.860e+00
3.461e+01 8.810e-02 1.960e-03 1.819e+00 4.814e-13 4.814e-11 5.145e-01 1.160e+04 3.917e+03 -3.456e+00
3.545e+01 9.057e-02 1.971e-03 1.830e+00 4.939e-13 4.939e-11 5.295e-01 1.154e+04 3.925e+03 -3.134e+00
3.630e+01 9.352e-02 1.984e-03 1.842e+00 4.963e-13 4.963e-11 5.372e-01 1.145e+04 3.933e+03 -2.816e+00
3.714e+01 9.699e-02 2.001e-03 1.858e+00 4.892e-13 4.892e-11 5.367e-01 1.132e+04 3.942e+03 -2.447e+00
3.799e+01 1.010e-01 2.024e-03 1.880e+00 4.761e-13 4.761e-11 5.299e-01 1.118e+04 3.950e+03 -1.994e+00
3.883e+01 1.058e-01 2.056e-03 1.909e+00 4.627e-13 4.627e-11 5.218e-01 1.105e+04 3.958e+03 -1.456e+00
3.967e+01 1.112e-01 2.097e-03 1.947e+00 4.539e-13 4.539e-11 5.166e-01 1.095e+04 3.967e+03 -8.666e-01
4.052e+01 1.174e-01 2.149e-03 1.996e+00 4.519e-13 4.519e-11 5.168e-01 1.089e+04 3.975e+03 -2.784e-01
4.136e+01 1.246e-01 2.212e-03 2.054e+00 4.584e-13 4.584e-11 5.242e-01 1.087e+04 3.983e+03 2.588e-01
4.221e+01 1.327e-01 2.285e-03 2.122e+00 4.711e-13 4.711e-11 5.369e-01 1.089e+04 3.992e+03 7.199e-01
4.305e+01 1.419e-01 2.366e-03 2.197e+00 4.866e-13 4.866e-11 5.515e-01 1.092e+04 4.000e+03 1.115e+00
4.389e+01 1.522e-01 2.452e-03 2.277e+00 5.023e-13 5.023e-11 5.658e-01 1.097e+04 4.008e+03 1.473e+00
4.474e+01 1.639e-01 2.540e-03 2.358e+00 5.158e-13 5.158e-11 5.772e-01 1.101e+04 4.017e+03 1.834e+00
4.558e+01 1.769e-01 2.626e-03 2.438e+00 5.248e-13 5.248e-11 5.832e-01 1.105e+04 4.025e+03 2.247e+00
4.643e+01 1.914e-01 2.706e-03 2.512e+00 5.279e-13 5.279e-11 5.821e-01 1.109e+04 4.033e+03 2.737e+00
4.727e+01 2.076e-01 2.775e-03 2.577e+00 5.238e-13 5.238e-11 5.729e-01 1.113e+04 4.042e+03 3.304e+00
4.812e+01 2.254e-01 2.833e-03 2.630e+00 5.123e-13 5.123e-11 5.556e-01 1.117e+04 4.050e+03 3.948e+00
4.896e+01 2.451e-01 2.877e-03 2.671e+00 4.947e-13 4.947e-11 5.324e-01 1.120e+04 4.058e+03 4.655e+00
4.980e+01 2.668e-01 2.908e-03 2.700e+00 4.745e-13 4.745e-11 5.072e-01 1.123e+04 4.067e+03 5.404e+00
5.065e+01 2.904e-01 2.929e-03 2.719e+00 4.574e-13 4.574e-11 4.862e-01 1.126e+04 4.075e+03 6.154e+00
5.149e+01 3.162e-01 2.945e-03 2.735e+00 4.479e-13 4.479e-11 4.742e-01 1.128e+04 4.083e+03 6.858e+00
5.234e+01 3.441e-01 2.965e-03 2.753e+00 4.488e-13 4.488e-11 4.734e-01 1.130e+04 4.092e+03 7.485e+00
5.318e+01 3.743e-01 3.000e-03 2.785e+00 4.625e-13 4.625e-11 4.861e-01 1.132e+04 4.100e+03 8.019e+00
5.402e+01 4.067e-01 3.062e-03 2.843e+00 4.908e-13 4.908e-11 5.138e-01 1.134e+04 4.108e+03 8.449e+00
5.487e+01 4.414e-01 3.169e-03 2.942e+00 5.329e-13 5.329e-11 5.545e-01 1.136e+04 4.117e+03 8.774e+00
5.571e+01 4.784e-01 3.341e-03 3.102e+00 5.835e-13 5.835e-11 6.023e-01 1.139e+04 4.125e+03 9.018e+00
5.656e+01 5.175e-01 3.603e-03 3.345e+00 6.335e-13 6.335e-11 6.485e-01 1.140e+04 4.133e+03 9.214e+00
5.740e+01 5.587e-01 3.981e-03 3.696e+00 6.750e-13 6.750e-11 6.856e-01 1.141e+04 4.142e+03 9.391e+00
5.824e+01 6.019e-01 4.509e-03 4.186e+00 7.018e-13 7.018e-11 7.080e-01 1.141e+04 4.150e+03 9.571e+00
5.909e+01 6.468e-01 5.223e-03 4.849e+00 7.095e-13 7.095e-11 7.123e-01 1.140e+04 4.158e+03 9.773e+00
5.993e+01 6.934e-01 6.164e-03 5.723e+00 6.970e-13 6.970e-11 6.978e-01 1.138e+04 4.167e+03 1.002e+01
6.078e+01 7.413e-01 7.374e-03 6.846e+00 6.681e-13 6.681e-11 6.689e-01 1.136e+04 4.175e+03 1.031e+01
6.162e+01 7.902e-01 8.897e-03 8.261e+00 6.287e-13 6.287e-11 6.317e-01 1.134e+04 4.183e+03 1.068e+01
6.247e+01 8.399e-01 1.078e-02 1.001e+01 5.857e-13 5.857e-11 5.928e-01 1.135e+04 4.192e+03 1.110e+01
6.331e+01 8.900e-01 1.305e-02 1.212e+01 5.457e-13 5.457e-11 5.584e-01 1.137e+04 4.200e+03 1.158e+01
6.415e+01 9.401e-01 1.575e-02 1.462e+01 5.128e-13 5.128e-11 5.318e-01 1.142e+04 4.208e+03 1.208e+01
6.500e+01 9.898e-01 1.888e-02 1.753e+01 4.864e-13 4.864e-11 5.115e-01 1.148e+04 4.217e+03 1.255e+01
6.584e+01 1.039e+00 2.244e-02 2.083e+01 4.651e-13 4.651e-11 4.960e-01 1.154e+04 4.225e+03 1.296e+01
6.669e+01 1.086e+00 2.641e-02 2.452e+01 4.468e-13 4.468e-11 4.826e-01 1.159e+04 4.233e+03 1.333e+01
6.753e+01 1.132e+00 3.074e-02 2.854e+01 4.297e-13 4.297e-11 4.691e-01 1.161e+04 4.242e+03 1.366e+01
6.837e+01 1.176e+00 3.535e-02 3.282e+01 4.128e-13 4.128e-11 4.548e-01 1.160e+04 4.250e+03 1.399e+01
6.922e+01 1.217e+00 4.014e-02 3.727e+01 3.956e-13 3.956e-11 4.397e-01 1.155e+04 4.258e+03 1.433e+01
7.006e+01 1.255e+00 4.498e-02 4.177e+01 3.779e-13 3.779e-11 4.238e-01 1.148e+04 4.267e+03 1.472e+01
7.091e+01 1.290e+00 4.974e-02 4.618e+01 3.604e-13 3.604e-11 4.080e-01 1.138e+04 4.275e+03 1.515e+01
7.175e+01 1.321e+00 5.425e-02 5.036e+01 3.434e-13 3.434e-11 3.924e-01 1.127e+04 4.283e+03 1.558e+01
7.259e+01 1.347e+00 5.835e-02 5.417e+01 3.268e-13 3.268e-11 3.772e-01 1.117e+04 4.292e+03 1.599e+01
7.344e+01 1.370e+00 6.190e-02 5.747e+01 3.106e-13 3.106e-11 3.626e-01 1.106e+04 4.300e+03 1.639e+01
7.428e+01 1.387e+00 6.477e-02 6.013e+01 2.943e-13 2.943e-11 3.480e-01 1.096e+04 4.308e+03 1.681e+01
7.513e+01 1.400e+00 6.684e-02 6.205e+01 2.779e-13 2.779e-11 3.339e-01 1.085e+04 4.317e+03 1.728e+01
7.597e+01 1.408e+00 6.803e-02 6.317e+01 2.621e-13 2.621e-11 3.207e-01 1.072e+04 4.325e+03 1.781e+01
7.682e+01 1.411e+00 6.832e-02 6.343e+01 2.480e-13 2.480e-11 3.099e-01 1.059e+04 4.333e+03 1.843e+01
7.766e+01 1.408e+00 6.771e-02 6.286e+01 2.369e-13 2.369e-11 3.022e-01 1.045e+04 4.342e+03 1.911e+01
7.850e+01 1.401e+00 6.623e-02 6.149e+01 2.295e-13 2.295e-11 2.984e-01 1.031e+04 4.350e+03 1.978e+01
7.935e+01 1.389e+00 6.396e-02 5.938e+01 2.258e-13 2.258e-11 2.981e-01 1.020e+04 4.358e+03 2.038e+01
8.019e+01 1.372e+00 6.100e-02 5.664e+01 2.252e-13 2.252e-11 3.009e-01 1.011e+04 4.367e+03 2.085e+01
8.104e+01 1.351e+00 5.749e-02 5.338e+01 2.266e-13 2.266e-11 3.054e-01 1.005e+04 4.375e+03 2.116e+01
8.188e+01 1.325e+00 5.356e-02 4.973e+01 2.288e-13 2.288e-11 3.107e-01 1.001e+04 4.383e+03 2.132e+01
8.272e+01 1.296e+00 4.936e-02 4.582e+01 2.307e-13 2.307e-11 3.157e-01 9.984e+03 4.392e+03 2.138e+01
8.357e+01 1.263e+00 4.501e-02 4.179e+01 2.321e-13 2.321e-11 3.203e-01 9.957e+03 4.400e+03 2.140e+01
8.441e+01 1.227e+00 4.065e-02 3.774e+01 2.339e-13 2.339e-11 3.255e-01 9.924e+03 4.408e+03 2.140e+01
8.526e+01 1.188e+00 3.639e-02 3.379e+01 2.377e-13 2.377e-11 3.326e-01 9.888e+03 4.417e+03 2.139e+01
8.610e+01 1.147e+00 3.232e-02 3.000e+01 2.438e-13 2.438e-11 3.422e-01 9.851e+03 4.425e+03 2.135e+01
8.694e+01 1.103e+00 2.850e-02 2.646e+01 2.519e-13 2.519e-11 3.535e-01 9.810e+03 4.433e+03 2.127e+01
8.779e+01 1.059e+00 2.499e-02 2.320e+01 2.610e-13 2.610e-11 3.652e-01 9.765e+03 4.442e+03 2.113e+01
8.863e+01 1.013e+00 2.182e-02 2.026e+01 2.701e-13 2.701e-11 3.760e-01 9.714e+03 4.450e+03 2.093e+01
8.948e+01 9.666e-01 1.899e-02 1.763e+01 2.786e-13 2.786e-11 3.850e-01 9.658e+03 4.458e+03 2.066e+01
9.032e+01 9.199e-01 1.651e-02 1.533e+01 2.868e-13 2.868e-11 3.928e-01 9.604e+03 4.467e+03 2.034e+01
9.117e+01 8.733e-01 1.436e-02 1.333e+01 2.956e-13 2.956e-11 4.005e-01 9.560e+03 4.475e+03 1.999e+01
9.201e+01 8.272e-01 1.252e-02 1.163e+01 3.062e-13 3.062e-11 4.091e-01 9.534e+03 4.483e+03 1.964e+01
9.285e+01 7.819e-01 1.097e-02 1.018e+01 3.191e-13 3.191e-11 4.194e-01 9.532e+03 4.492e+03 1.931e+01
9.370e+01 7.376e-01 9.670e-03 8.978e+00 3.343e-13 3.343e-11 4.312e-01 9.553e+03 4.500e+03 1.903e+01
9.454e+01 6.947e-01 8.595e-03 7.980e+00 3.509e-13 3.509e-11 4.433e-01 9.602e+03 4.508e+03 1.877e+01
9.539e+01 6.533e-01 7.715e-03 7.163e+00 3.676e-13 3.676e-11 4.543e-01 9.685e+03 4.517e+03 1.854e+01
9.623e+01 6.136e-01 7.000e-03 6.499e+00 3.851e-13 3.851e-11 4.643e-01 9.854e+03 4.525e+03 1.825e+01
9.707e+01 5.757e-01 6.425e-03 5.965e+00 4.060e-13 4.060e-11 4.752e-01 1.018e+04 4.533e+03 1.786e+01
9.792e+01 5.397e-01 5.965e-03 5.539e+00 4.327e-13 4.327e-11 4.889e-01 1.070e+04 4.542e+03 1.730e+01
9.876e+01 5.058e-01 5.602e-03 5.201e+00 4.723e-13 4.723e-11 5.105e-01 1.157e+04 4.550e+03 1.636e+01
9.961e+01 4.739e-01 5.318e-03 4.938e+00 5.349e-13 5.349e-11 5.476e-01 1.283e+04 4.558e+03 1.492e+01
1.005e+02 4.440e-01 5.101e-03 4.736e+00 6.260e-13 6.260e-11 6.043e-01 1.430e+04 4.567e+03 1.313e+01
1.013e+02 4.161e-01 4.938e-03 4.585e+00 7.445e-13 7.445e-11 6.782e-01 1.585e+04 4.575e+03 1.110e+01
1.021e+02 3.902e-01 4.824e-03 4.479e+00 9.078e-13 9.078e-11 7.751e-01 1.774e+04 4.583e+03 8.361e+00
1.030e+02 3.662e-01 4.751e-03 4.411e+00 1.139e-12 1.139e-10 9.028e-01 2.004e+04 4.592e+03 4.749e+00
1.038e+02 3.439e-01 4.716e-03 4.379e+00 1.491e-12 1.491e-10 1.082e+00 2.285e+04 4.600e+03 -1.082e-01
1.047e+02 3.234e-01 4.714e-03 4.376e+00 2.041e-12 2.041e-10 1.344e+00 2.574e+04 4.608e+03 -5.680e+00
1.055e+02 3.044e-01 4.739e-03 4.400e+00 2.860e-12 2.860e-10 1.702e+00 2.794e+04 4.617e+03 -1.150e+01
1.064e+02 2.868e-01 4.786e-03 4.444e+00 4.033e-12 4.033e-10 2.159e+00 2.903e+04 4.625e+03 -1.709e+01
1.072e+02 2.706e-01 4.847e-03 4.500e+00 5.545e-12 5.545e-10 2.674e+00 2.917e+04 4.633e+03 -2.183e+01
1.080e+02 2.555e-01 4.910e-03 4.559e+00 7.201e-12 7.201e-10 3.143e+00 2.860e+04 4.642e+03 -2.558e+01
1.089e+02 2.414e-01 4.964e-03 4.609e+00 8.933e-12 8.933e-10 3.506e+00 2.735e+04 4.650e+03 -2.863e+01
1.097e+02 2.283e-01 4.997e-03 4.639e+00 1.076e-11 1.076e-09 3.759e+00 2.562e+04 4.658e+03 -3.111e+01
1.106e+02 2.161e-01 4.994e-03 4.636e+00 1.270e-11 1.270e-09 3.936e+00 2.374e+04 4.667e+03 -3.322e+01
1.114e+02 2.045e-01 4.944e-03 4.591e+00 1.479e-11 1.479e-09 4.132e+00 2.211e+04 4.675e+03 -3.503e+01
1.123e+02 1.935e-01 4.840e-03 4.494e+00 1.679e-11 1.679e-09 4.374e+00 2.096e+04 4.683e+03 -3.662e+01
1.131e+02 1.831e-01 4.676e-03 4.342e+00 1.823e-11 1.823e-09 4.590e+00 2.028e+04 4.692e+03 -3.804e+01
1.140e+02 1.732e-01 4.454e-03 4.136e+00 1.875e-11 1.875e-09 4.701e+00 1.994e+04 4.700e+03 -3.931e+01
1.148e+02 1.636e-01 4.180e-03 3.880e+00 1.841e-11 1.841e-09 4.706e+00 1.985e+04 4.708e+03 -4.031e+01
1.156e+02 1.545e-01 3.862e-03 3.586e+00 1.737e-11 1.737e-09 4.608e+00 1.992e+04 4.717e+03 -4.086e+01
1.165e+02 1.457e-01 3.516e-03 3.265e+00 1.587e-11 1.587e-09 4.420e+00 2.008e+04 4.725e+03 -4.088e+01
1.173e+02 1.372e-01 3.157e-03 2.931e+00 1.384e-11 1.384e-09 4.081e+00 2.026e+04 4.733e+03 -4.048e+01
1.182e+02 1.290e-01 2.800e-03 2.600e+00 1.135e-11 1.135e-09 3.572e+00 2.041e+04 4.742e+03 -3.987e+01
1.190e+02 1.211e-01 2.460e-03 2.284e+00 8.738e-12 8.738e-10 2.949e+00 2.050e+04 4.750e+03 -3.920e+01
1.199e+02 1.136e-01 2.147e-03 1.993e+00 6.227e-12 6.227e-10 2.275e+00 2.053e+04 4.758e+03 -3.856e+01
1.207e+02 1.063e-01 1.869e-03 1.735e+00 4.076e-12 4.076e-10 1.639e+00 2.052e+04 4.767e+03 -3.803e+01
1.216e+02 9.943e-02 1.631e-03 1.514e+00 2.492e-12 2.492e-10 1.127e+00 2.048e+04 4.775e+03 -3.777e+01
1.224e+02 9.287e-02 1.433e-03 1.330e+00 1.449e-12 1.449e-10 7.612e-01 2.037e+04 4.783e+03 -3.823e+01
1.232e+02 8.666e-02 1.273e-03 1.182e+00 8.067e-13 8.067e-11 5.177e-01 2.008e+04 4.792e+03 -4.020e+01
1.241e+02 8.082e-02 1.147e-03 1.065e+00 4.464e-13 4.464e-11 3.713e-01 1.930e+04 4.800e+03 -4.516e+01
1.249e+02 7.534e-02 1.051e-03 9.758e-01 2.626e-13 2.626e-11 2.945e-01 1.763e+04 4.808e+03 -5.447e+01
1.258e+02 7.024e-02 9.785e-04 9.084e-01 1.814e-13 1.814e-11 2.616e-01 1.554e+04 4.817e+03 -6.591e+01
1.266e+02 6.551e-02 9.246e-04 8.584e-01 1.480e-13 1.480e-11 2.497e-01 1.403e+04 4.825e+03 -7.493e+01
1.275e+02 6.116e-02 8.848e-04 8.215e-01 1.323e-13 1.323e-11 2.439e-01 1.306e+04 4.833e+03 -8.034e+01
1.283e+02 5.717e-02 8.553e-04 7.941e-01 1.252e-13 1.252e-11 2.393e-01 1.249e+04 4.842e+03 -8.204e+01
1.292e+02 5.354e-02 8.331e-04 7.735e-01 1.188e-13 1.188e-11 2.322e-01 1.200e+04 4.850e+03 -8.245e+01
1.300e+02 5.025e-02 8.159e-04 7.575e-01 1.111e-13 1.111e-11 2.222e-01 1.148e+04 4.858e+03 -8.287e+01
1.308e+02 4.729e-02 8.022e-04 7.448e-01 1.029e-13 1.029e-11 2.112e-01 1.089e+04 4.867e+03 -8.337e+01
1.317e+02 4.465e-02 7.909e-04 7.343e-01 9.556e-14 9.556e-12 2.012e-01 1.025e+04 4.875e+03 -8.392e+01
1.325e+02 4.230e-02 7.811e-04 7.252e-01 9.019e-14 9.019e-12 1.941e-01 9.626e+03 4.883e+03 -8.449e+01
1.334e+02 4.023e-02 7.725e-04 7.173e-01 8.696e-14 8.696e-12 1.903e-01 9.064e+03 4.892e+03 -8.503e+01
1.342e+02 3.841e-02 7.648e-04 7.101e-01 8.580e-14 8.580e-12 1.894e-01 8.599e+03 4.900e+03 -8.551e+01
1.351e+02 3.682e-02 7.579e-04 7.036e-01 8.653e-14 8.653e-12 1.914e-01 8.249e+03 4.908e+03 -8.591e+01
1.359e+02 3.546e-02 7.515e-04 6.978e-01 8.901e-14 8.901e-12 1.958e-01 8.010e+03 4.917e+03 -8.623e+01
1.367e+02 3.429e-02 7.458e-04 6.925e-01 9.303e-14 9.303e-12 2.024e-01 7.859e+03 4.925e+03 -8.648e+01
1.376e+02 3.330e-02 7.407e-04 6.877e-01 9.823e-14 9.823e-12 2.105e-01 7.764e+03 4.933e+03 -8.670e+01
1.384e+02 3.247e-02 7.363e-04 6.836e-01 1.041e-13 1.041e-11 2.193e-01 7.696e+03 4.942e+03 -8.688e+01
1.393e+02 3.180e-02 7.326e-04 6.802e-01 1.104e-13 1.104e-11 2.285e-01 7.639e+03 4.950e+03 -8.702e+01
1.401e+02 3.126e-02 7.296e-04 6.774e-01 1.172e-13 1.172e-11 2.378e-01 7.592e+03 4.958e+03 -8.711e+01
1.410e+02 3.084e-02 7.274e-04 6.753e-01 1.243e-13 1.243e-11 2.474e-01 7.553e+03 4.967e+03 -8.714e+01
1.418e+02 3.054e-02 7.260e-04 6.741e-01 1.318e-13 1.318e-11 2.572e-01 7.522e+03 4.975e+03 -8.711e+01
1.427e+02 3.034e-02 7.256e-04 6.737e-01 1.397e-13 1.397e-11 2.673e-01 7.498e+03 4.983e+03 -8.701e+01
1.435e+02 3.024e-02 7.263e-04 6.743e-01 1.478e-13 1.478e-11 2.773e-01 7.479e+03 4.992e+03 -8.684e+01
1.443e+02 3.023e-02 7.282e-04 6.761e-01 1.559e-13 1.559e-11 2.871e-01 7.466e+03 5.000e+03 -8.658e+01
1.452e+02 3.031e-02 7.315e-04 6.791e-01 1.638e-13 1.638e-11 2.961e-01 7.455e+03 5.008e+03 -8.623e+01
1.460e+02 3.047e-02 7.364e-04 6.837e-01 1.713e-13 1.713e-11 3.045e-01 7.446e+03 5.017e+03 -8.580e+01
1.469e+02 3.071e-02 7.431e-04 6.899e-01 1.786e-13 1.786e-11 3.123e-01 7.438e+03 5.025e+03 -8.529e+01
1.477e+02 3.103e-02 7.518e-04 6.980e-01 1.858e-13 1.858e-11 3.200e-01 7.432e+03 5.033e+03 -8.470e+01
1.486e+02 3.142e-02 7.627e-04 7.082e-01 1.930e-13 1.930e-11 3.278e-01 7.426e+03 5.042e+03 -8.405e+01
1.494e+02 3.189e-02 7.759e-04 7.204e-01 2.002e-13 2.002e-11 3.357e-01 7.422e+03 5.050e+03 -8.335e+01
1.503e+02 3.243e-02 7.914e-04 7.348e-01 2.071e-13 2.071e-11 3.434e-01 7.419e+03 5.058e+03 -8.262e+01
1.511e+02 3.304e-02 8.092e-04 7.513e-01 2.133e-13 2.133e-11 3.502e-01 7.416e+03 5.067e+03 -8.189e+01
1.519e+02 3.373e-02 8.289e-04 7.696e-01 2.186e-13 2.186e-11 3.561e-01 7.414e+03 5.075e+03 -8.119e+01
1.528e+02 3.450e-02 8.505e-04 7.897e-01 2.228e-13 2.228e-11 3.606e-01 7.414e+03 5.083e+03 -8.053e+01
1.536e+02 3.534e-02 8.736e-04 8.111e-01 2.255e-13 2.255e-11 3.634e-01 7.415e+03 5.092e+03 -7.989e+01
1.545e+02 3.627e-02 8.979e-04 8.337e-01 2.267e-13 2.267e-11 3.643e-01 7.418e+03 5.100e+03 -7.928e+01
1.553e+02 3.727e-02 9.230e-04 8.570e-01 2.261e-13 2.261e-11 3.630e-01 7.424e+03 5.108e+03 -7.869e+01
1.562e+02 3.836e-02 9.487e-04 8.809e-01 2.235e-13 2.235e-11 3.590e-01 7.432e+03 5.117e+03 -7.812e+01
1.570e+02 3.953e-02 9.749e-04 9.051e-01 2.188e-13 2.188e-11 3.524e-01 7.445e+03 5.125e+03 -7.757e+01
1.579e+02 4.080e-02 1.001e-03 9.297e-01 2.126e-13 2.126e-11 3.439e-01 7.463e+03 5.133e+03 -7.702e+01
1.587e+02 4.216e-02 1.028e-03 9.549e-01 2.056e-13 2.056e-11 3.347e-01 7.487e+03 5.142e+03 -7.646e+01
1.595e+02 4.362e-02 1.056e-03 9.808e-01 1.983e-13 1.983e-11 3.255e-01 7.517e+03 5.150e+03 -7.588e+01
1.604e+02 4.518e-02 1.086e-03 1.008e+00 1.910e-13 1.910e-11 3.165e-01 7.554e+03 5.158e+03 -7.529e+01
1.612e+02 4.685e-02 1.117e-03 1.037e+00 1.839e-13 1.839e-11 3.082e-01 7.598e+03 5.167e+03 -7.468e+01
1.621e+02 4.862e-02 1.150e-03 1.068e+00 1.774e-13 1.774e-11 3.009e-01 7.648e+03 5.175e+03 -7.406e+01
1.629e+02 5.051e-02 1.187e-03 1.102e+00 1.717e-13 1.717e-11 2.951e-01 7.702e+03 5.183e+03 -7.348e+01
1.638e+02 5.251e-02 1.228e-03 1.140e+00 1.671e-13 1.671e-11 2.910e-01 7.756e+03 5.192e+03 -7.294e+01
1.646e+02 5.462e-02 1.274e-03 1.182e+00 1.633e-13 1.633e-11 2.881e-01 7.809e+03 5.200e+03 -7.248e+01
